t,x_kite,z_kite,x_block,z_block,theta,vtheta,windx,windy,v_block,Tension
0,50.000000,0.001000,0.000000,0.000000,0.000010,1.000202,20.000000,0.000000,0.007067,35736.203209
1000,50.015013,0.546734,0.018002,0.000000,0.010923,1.162109,20.000000,0.000000,3.766878,42979.693665
2000,50.067215,1.167599,0.080850,0.000000,0.023341,1.264636,20.000000,0.000000,8.937422,55368.685490
3000,50.167965,1.817070,0.200993,0.000000,0.036337,1.242156,20.000000,0.000000,15.041598,59391.806060
4000,50.327888,2.423029,0.386633,0.000000,0.048468,1.073145,20.000000,0.000000,21.744822,57268.471694
5000,50.526714,2.950151,0.613824,0.000000,0.059027,0.946758,20.000000,0.000000,22.944567,-34284.311430
6000,50.726716,3.416498,0.843577,0.000000,0.068374,0.823439,20.000000,0.000000,22.993995,34533.183131
7000,50.926718,3.834299,1.073953,0.000000,0.076753,0.749415,20.000000,0.000000,23.076197,22306.258542
8000,51.126721,4.213023,1.304533,0.000000,0.084353,0.669245,20.000000,0.000000,23.034491,-23199.913742
9000,51.326724,4.558995,1.535002,0.000000,0.091300,0.618910,20.000000,0.000000,23.055039,15465.506196
10000,51.526729,4.877608,1.765208,0.000000,0.097701,0.562851,20.000000,0.000000,22.986286,16683.967472
11000,51.726733,5.172643,1.995015,0.000000,0.103633,0.526372,20.000000,0.000000,22.973800,-11263.256013
12000,51.926737,5.447450,2.224370,0.000000,0.109160,0.485039,20.000000,0.000000,22.897692,12523.670397
13000,52.126741,5.704463,2.453216,0.000000,0.114333,0.457433,20.000000,0.000000,22.871799,8631.077468
14000,52.326746,5.945900,2.681542,0.000000,0.119195,0.425684,20.000000,0.000000,22.794378,9726.011178
15000,52.526751,6.171670,2.909108,0.000000,0.123745,0.397905,20.000000,0.000000,22.718707,-8590.748003
16000,52.726755,6.385132,3.136130,0.000000,0.128048,0.378654,20.000000,0.000000,22.685248,5987.019526
17000,52.926760,6.587562,3.362620,0.000000,0.132131,0.356325,20.000000,0.000000,22.613454,-6944.686224
18000,53.126765,6.779921,3.588571,0.000000,0.136014,0.340511,20.000000,0.000000,22.576618,4873.487885
19000,53.326770,6.963133,3.813996,0.000000,0.139713,0.322103,20.000000,0.000000,22.509150,5654.748123
20000,53.526774,7.137916,4.038895,0.000000,0.143244,0.308786,20.000000,0.000000,22.470949,-4027.916207
21000,53.726779,7.304970,4.263283,0.000000,0.146621,0.293314,20.000000,0.000000,22.407029,-4763.671134
22000,53.926784,7.464846,4.487163,0.000000,0.149854,0.281963,20.000000,0.000000,22.368685,-3374.761316
23000,54.126789,7.618087,4.710549,0.000000,0.152954,0.268767,20.000000,0.000000,22.308595,3974.197213
24000,54.326793,7.765124,4.933445,0.000000,0.155931,0.258913,20.000000,0.000000,22.270774,2860.172411
25000,54.526798,7.906387,5.155865,0.000000,0.158791,0.247482,20.000000,0.000000,22.213771,3382.674403
26000,54.726803,8.042219,5.377814,0.000000,0.161543,0.238831,20.000000,0.000000,22.176349,2443.308047
27000,54.926808,8.172968,5.599305,0.000000,0.164194,0.228816,20.000000,0.000000,22.121925,-2933.368691
28000,55.126813,8.298911,5.820342,0.000000,0.166747,0.221133,20.000000,0.000000,22.085284,-2096.246764
29000,55.326818,8.420331,6.040937,0.000000,0.169211,0.212287,20.000000,0.000000,22.034099,2505.458615
30000,55.526822,8.537456,6.261096,0.000000,0.171588,0.205396,20.000000,0.000000,21.997998,1819.694743
31000,55.726827,8.650520,6.480827,0.000000,0.173883,0.197496,20.000000,0.000000,21.948948,2174.756961
32000,55.926832,8.759712,6.700138,0.000000,0.176101,0.191258,20.000000,0.000000,21.913261,-1573.748848
33000,56.126837,8.865229,6.919036,0.000000,0.178245,0.184145,20.000000,0.000000,21.866424,-1912.186198
34000,56.326842,8.967229,7.137526,0.000000,0.180318,0.178463,20.000000,0.000000,21.831627,-1371.686184
35000,56.526847,9.065878,7.355617,0.000000,0.182324,0.172018,20.000000,0.000000,21.786590,-1670.730268
36000,56.726851,9.161310,7.573312,0.000000,0.184265,0.166799,20.000000,0.000000,21.752439,-1198.996836
37000,56.926856,9.253665,7.790620,0.000000,0.186145,0.160917,20.000000,0.000000,21.709201,-1463.287501
38000,57.126861,9.343060,8.007545,0.000000,0.187964,0.156097,20.000000,0.000000,21.675725,1063.750737
39000,57.326866,9.429614,8.224092,0.000000,0.189727,0.150692,20.000000,0.000000,21.633943,-1283.842230
40000,57.526871,9.513426,8.440266,0.000000,0.191434,0.146213,20.000000,0.000000,21.600938,936.076562
41000,57.726876,9.594602,8.656073,0.000000,0.193088,0.141223,20.000000,0.000000,21.560592,-1127.654362
42000,57.926880,9.673225,8.871517,0.000000,0.194691,0.137037,20.000000,0.000000,21.528068,824.778663
43000,58.126885,9.749388,9.086601,0.000000,0.196243,0.132403,20.000000,0.000000,21.489085,-990.897702
44000,58.326890,9.823164,9.301331,0.000000,0.197748,0.128476,20.000000,0.000000,21.456861,727.271561
45000,58.526895,9.894632,9.515710,0.000000,0.199206,0.124157,20.000000,0.000000,21.419149,875.052677
46000,58.726899,9.963858,9.729741,0.000000,0.200619,0.120446,20.000000,0.000000,21.387220,-623.001717
47000,58.926904,10.030912,9.943429,0.000000,0.201988,0.116400,20.000000,0.000000,21.350499,-764.450887
48000,59.126909,10.095850,10.156777,0.000000,0.203314,0.112891,20.000000,0.000000,21.319078,565.518134
49000,59.326914,10.158734,10.369788,0.000000,0.204598,0.109082,20.000000,0.000000,21.283254,-670.285357
50000,59.526919,10.219614,10.582465,0.000000,0.205842,0.105743,20.000000,0.000000,21.252130,-477.815358
51000,59.726923,10.278544,10.794812,0.000000,0.207046,0.102147,20.000000,0.000000,21.217231,-586.527768
52000,59.926928,10.335569,11.006830,0.000000,0.208211,0.098961,20.000000,0.000000,21.186413,-417.037992
53000,60.126933,10.390738,11.218523,0.000000,0.209339,0.095555,20.000000,0.000000,21.152291,525.124755
54000,60.326938,10.444089,11.429893,0.000000,0.210430,0.092503,20.000000,0.000000,21.121753,384.915635
55000,60.526943,10.495665,11.640942,0.000000,0.211485,0.089259,20.000000,0.000000,21.088264,-445.140113
56000,60.726947,10.545502,11.851674,0.000000,0.212505,0.086330,20.000000,0.000000,21.058023,337.208049
57000,60.926952,10.593638,12.062089,0.000000,0.213490,0.083235,20.000000,0.000000,21.025194,402.115919
58000,61.126957,10.640104,12.272191,0.000000,0.214441,0.080410,20.000000,0.000000,20.995152,294.531136
59000,61.326962,10.684935,12.481981,0.000000,0.215359,0.077445,20.000000,0.000000,20.962874,-331.947923
60000,61.526966,10.728157,12.691460,0.000000,0.216244,0.074717,20.000000,0.000000,20.933087,256.317880
61000,61.726971,10.769848,12.900642,0.000000,0.217097,0.072029,20.000000,0.000000,20.903346,-214.748415
62000,61.926976,10.809987,13.109518,0.000000,0.217920,0.069234,20.000000,0.000000,20.871852,-262.593390
63000,62.126981,10.848598,13.318089,0.000000,0.218711,0.066628,20.000000,0.000000,20.842346,206.817011
64000,62.326985,10.885744,13.526365,0.000000,0.219472,0.064057,20.000000,0.000000,20.812864,-166.939068
65000,62.526990,10.921410,13.734339,0.000000,0.220203,0.061405,20.000000,0.000000,20.782007,-203.619068
66000,62.726995,10.955615,13.942012,0.000000,0.220904,0.058902,20.000000,0.000000,20.752720,-138.974609
67000,62.927000,10.988381,14.149387,0.000000,0.221576,0.056332,20.000000,0.000000,20.722275,192.089755
68000,63.127004,11.019726,14.356464,0.000000,0.222218,0.053891,20.000000,0.000000,20.693105,140.310126
69000,63.327009,11.049670,14.563244,0.000000,0.222832,0.051393,20.000000,0.000000,20.662969,-138.416508
70000,63.527014,11.078199,14.769722,0.000000,0.223417,0.048908,20.000000,0.000000,20.632708,-134.845306
71000,63.727019,11.105334,14.975900,0.000000,0.223974,0.046477,20.000000,0.000000,20.602895,-110.610358
72000,63.927023,11.131113,15.181784,0.000000,0.224503,0.044137,20.000000,0.000000,20.574018,98.866196
73000,64.127028,11.155553,15.387377,0.000000,0.225004,0.041763,20.000000,0.000000,20.544476,112.071772
74000,64.327024,11.178678,15.592671,0.000000,0.225479,0.039512,20.000000,0.000000,20.514388,82.113872
75000,64.527014,11.200498,15.797671,0.000000,0.225927,0.037176,20.000000,0.000000,20.485444,91.811381
76000,64.726983,11.221044,16.002368,0.000000,0.226348,0.035025,20.000000,0.000000,20.453754,67.645562
77000,64.926918,11.240349,16.206752,0.000000,0.226745,0.032812,20.000000,0.000000,20.422912,74.788917
78000,65.126805,11.258438,16.410816,0.000000,0.227116,0.030748,20.000000,0.000000,20.389877,55.517548
79000,65.326633,11.275341,16.614553,0.000000,0.227463,0.028642,20.000000,0.000000,20.357446,60.548706
80000,65.526391,11.291079,16.817957,0.000000,0.227786,0.026652,20.000000,0.000000,20.323287,45.407155
81000,65.726069,11.305678,17.021021,0.000000,0.228086,0.024637,20.000000,0.000000,20.289533,48.717111
82000,65.925658,11.319155,17.223741,0.000000,0.228363,0.022710,20.000000,0.000000,20.254442,37.051000
83000,66.125151,11.331532,17.426112,0.000000,0.228617,0.020770,20.000000,0.000000,20.219597,38.991099
84000,66.324539,11.342824,17.628129,0.000000,0.228849,0.018894,20.000000,0.000000,20.183743,30.236860
85000,66.523815,11.353046,17.829788,0.000000,0.229059,0.017015,20.000000,0.000000,20.148012,31.128850
86000,66.722975,11.362211,18.031085,0.000000,0.229247,0.015179,20.000000,0.000000,20.111545,24.797112
87000,66.922013,11.370332,18.232019,0.000000,0.229414,0.013347,20.000000,0.000000,20.075112,24.942354
88000,67.120924,11.377417,18.432585,0.000000,0.229559,0.011541,20.000000,0.000000,20.038166,20.603671
89000,67.319705,11.383476,18.632782,0.000000,0.229684,0.009742,20.000000,0.000000,20.001198,20.291986
90000,67.518352,11.388514,18.832607,0.000000,0.229787,0.007956,20.000000,0.000000,19.963899,17.564476
91000,67.716863,11.392537,19.032060,0.000000,0.229870,0.006177,20.000000,0.000000,19.926551,17.082891
92000,67.915236,11.395548,19.231137,0.000000,0.229932,0.004401,20.000000,0.000000,19.889016,15.619834
93000,68.113470,11.397549,19.429839,0.000000,0.229973,0.002631,20.000000,0.000000,19.851437,15.250272
94000,68.311563,11.398541,19.628165,0.000000,0.229993,0.000859,20.000000,0.000000,19.813778,14.684360
95000,68.509516,11.398526,19.826115,0.000000,0.229993,-0.000907,20.000000,0.000000,19.776096,14.466363
96000,68.707327,11.397506,20.023687,0.000000,0.229972,-0.002671,20.000000,0.000000,19.738377,14.120773
97000,68.904995,11.395484,20.220882,0.000000,0.229930,-0.004420,20.000000,0.000000,19.700603,13.430245
98000,69.102517,11.392470,20.417698,0.000000,0.229868,-0.006155,20.000000,0.000000,19.662748,12.529570
99000,69.299891,11.388470,20.614136,0.000000,0.229786,-0.007886,20.000000,0.000000,19.624839,12.023617
100000,69.497113,11.383492,20.810194,0.000000,0.229684,-0.009582,20.000000,0.000000,19.586730,9.876233
101000,69.694179,11.377549,21.005870,0.000000,0.229562,-0.011279,20.000000,0.000000,19.548581,9.551680
102000,69.891083,11.370654,21.201164,0.000000,0.229420,-0.012923,20.000000,0.000000,19.510103,6.145725
103000,70.087820,11.362820,21.396072,0.000000,0.229260,-0.014577,20.000000,0.000000,19.471627,6.288557
104000,70.284384,11.354065,21.590594,0.000000,0.229080,-0.016158,20.000000,0.000000,19.432672,1.454898
105000,70.480768,11.344405,21.784726,0.000000,0.228881,-0.017759,20.000000,0.000000,19.393793,2.336849
106000,70.676964,11.333859,21.978466,0.000000,0.228665,-0.019265,20.000000,0.000000,19.354272,-4.047797
107000,70.872964,11.322447,22.171812,0.000000,0.228431,-0.020806,20.000000,0.000000,19.314927,-2.181675
108000,71.068761,11.310191,22.364761,0.000000,0.228179,-0.022228,20.000000,0.000000,19.274765,-10.194077
109000,71.264345,11.297112,22.557309,0.000000,0.227910,-0.023701,20.000000,0.000000,19.234905,-7.132782
110000,71.459720,11.283192,22.749459,0.000000,0.227625,-0.025180,20.000000,0.000000,19.194980,-7.706989
111000,71.654879,11.268455,22.941206,0.000000,0.227322,-0.026577,20.000000,0.000000,19.154537,-12.694316
112000,71.849796,11.252971,23.132544,0.000000,0.227004,-0.027801,20.000000,0.000000,19.112906,-24.116592
113000,72.044460,11.236766,23.323468,0.000000,0.226672,-0.029118,20.000000,0.000000,19.071892,-18.103783
114000,72.238861,11.219869,23.513975,0.000000,0.226325,-0.030232,20.000000,0.000000,19.029514,-31.115273
115000,72.432989,11.202306,23.704062,0.000000,0.225965,-0.031464,20.000000,0.000000,18.987925,-23.514257
116000,72.626833,11.184108,23.893726,0.000000,0.225591,-0.032463,20.000000,0.000000,18.944805,-38.018406
117000,72.820382,11.165303,24.082963,0.000000,0.225205,-0.033605,20.000000,0.000000,18.902654,-28.791048
118000,73.013625,11.145924,24.271771,0.000000,0.224808,-0.034483,20.000000,0.000000,18.858815,-44.657835
119000,73.206552,11.125998,24.460145,0.000000,0.224399,-0.035532,20.000000,0.000000,18.816125,-33.809782
120000,73.399151,11.105559,24.648084,0.000000,0.223980,-0.036287,20.000000,0.000000,18.771609,-50.881130
121000,73.591413,11.084637,24.835584,0.000000,0.223551,-0.037241,20.000000,0.000000,18.728418,-38.459382
122000,73.783325,11.063266,25.022643,0.000000,0.223112,-0.037868,20.000000,0.000000,18.683279,-56.554925
123000,73.974879,11.041475,25.209257,0.000000,0.222665,-0.038725,20.000000,0.000000,18.639633,-42.644312
124000,74.166062,11.019300,25.395425,0.000000,0.222211,-0.039224,20.000000,0.000000,18.593939,-61.567256
125000,74.356866,10.996769,25.581144,0.000000,0.221749,-0.039982,20.000000,0.000000,18.549894,-46.286017
126000,74.547280,10.973919,25.766412,0.000000,0.221280,-0.040353,20.000000,0.000000,18.503723,-65.828825
127000,74.737296,10.950778,25.951227,0.000000,0.220806,-0.041013,20.000000,0.000000,18.459343,-49.323560
128000,74.926902,10.927383,26.135588,0.000000,0.220326,-0.041254,20.000000,0.000000,18.412781,-69.273262
129000,75.116090,10.903761,26.319492,0.000000,0.219842,-0.041816,20.000000,0.000000,18.368133,-51.713495
130000,75.304852,10.879950,26.502939,0.000000,0.219354,-0.041931,20.000000,0.000000,18.321270,-71.856419
131000,75.493179,10.855976,26.685928,0.000000,0.218863,-0.042395,20.000000,0.000000,18.276426,-53.429041
132000,75.681062,10.831876,26.868456,0.000000,0.218369,-0.042384,20.000000,0.000000,18.229356,-73.554847
133000,75.868494,10.807676,27.050525,0.000000,0.217874,-0.042754,20.000000,0.000000,18.184388,-54.458677
134000,76.055467,10.783411,27.232132,0.000000,0.217377,-0.042619,20.000000,0.000000,18.137207,-74.363588
135000,76.241976,10.759109,27.413279,0.000000,0.216879,-0.042896,20.000000,0.000000,18.092187,-54.804261
136000,76.428010,10.734803,27.593965,0.000000,0.216381,-0.042641,20.000000,0.000000,18.044988,-74.293464
137000,76.613567,10.710520,27.774190,0.000000,0.215884,-0.042826,20.000000,0.000000,17.999988,-54.478816
138000,76.798638,10.686292,27.953953,0.000000,0.215388,-0.042454,20.000000,0.000000,17.952864,-73.368016
139000,76.983218,10.662144,28.133257,0.000000,0.214893,-0.042551,20.000000,0.000000,17.907954,-53.504117
140000,77.167302,10.638110,28.312102,0.000000,0.214402,-0.042065,20.000000,0.000000,17.860993,-71.620276
141000,77.350885,10.614213,28.490488,0.000000,0.213912,-0.042075,20.000000,0.000000,17.816239,-51.908178
142000,77.533962,10.590485,28.668416,0.000000,0.213427,-0.041480,20.000000,0.000000,17.769525,-69.089503
143000,77.716529,10.566950,28.845888,0.000000,0.212945,-0.041406,20.000000,0.000000,17.724990,-49.722771
144000,77.898582,10.543637,29.022906,0.000000,0.212468,-0.040703,20.000000,0.000000,17.678604,-65.818002
145000,78.080117,10.520570,29.199470,0.000000,0.211996,-0.040548,20.000000,0.000000,17.634348,-46.981030
146000,78.261130,10.497779,29.375583,0.000000,0.211530,-0.039742,20.000000,0.000000,17.588365,-61.848113
147000,78.441618,10.475285,29.551247,0.000000,0.211070,-0.039508,20.000000,0.000000,17.544443,-43.715207
148000,78.621579,10.453118,29.726463,0.000000,0.210616,-0.038600,20.000000,0.000000,17.498935,-57.219420
149000,78.801010,10.431298,29.901235,0.000000,0.210170,-0.038289,20.000000,0.000000,17.455401,-39.954607
150000,78.979908,10.409855,30.075563,0.000000,0.209732,-0.037283,20.000000,0.000000,17.410434,-51.966200
151000,79.158272,10.388809,30.249452,0.000000,0.209301,-0.036895,20.000000,0.000000,17.367338,-35.723706
152000,79.336098,10.368189,30.422903,0.000000,0.208880,-0.035792,20.000000,0.000000,17.322976,-46.115091
153000,79.513387,10.348014,30.595919,0.000000,0.208467,-0.035330,20.000000,0.000000,17.280367,-31.040423
154000,79.690135,10.328312,30.768504,0.000000,0.208065,-0.034131,20.000000,0.000000,17.236672,-39.682951
155000,79.866342,10.309104,30.940660,0.000000,0.207672,-0.033594,20.000000,0.000000,17.194596,-25.914525
156000,80.042006,10.290418,31.112390,0.000000,0.207290,-0.032300,20.000000,0.000000,17.151630,-32.674832
157000,80.217127,10.272272,31.283699,0.000000,0.206919,-0.031689,20.000000,0.000000,17.110133,-20.346081
158000,80.391703,10.254697,31.454588,0.000000,0.206560,-0.030299,20.000000,0.000000,17.067957,-25.081975
159000,80.565734,10.237711,31.625063,0.000000,0.206213,-0.029613,20.000000,0.000000,17.027087,-14.323912
160000,80.739219,10.221342,31.795127,0.000000,0.205878,-0.028125,20.000000,0.000000,16.985764,-16.879737
161000,80.912158,10.205613,31.964783,0.000000,0.205557,-0.027363,20.000000,0.000000,16.945572,-7.823933
162000,81.084549,10.190550,32.134036,0.000000,0.205249,-0.025776,20.000000,0.000000,16.905169,-8.025313
163000,81.256393,10.176177,32.302890,0.000000,0.204956,-0.024936,20.000000,0.000000,16.865708,-0.807304
164000,81.427689,10.162521,32.471349,0.000000,0.204677,-0.023247,20.000000,0.000000,16.826300,1.544893
165000,81.598437,10.149606,32.639419,0.000000,0.204413,-0.022324,20.000000,0.000000,16.787629,6.781748
166000,81.768637,10.137463,32.807102,0.000000,0.204165,-0.020528,20.000000,0.000000,16.749296,11.918371
167000,81.938289,10.126114,32.974406,0.000000,0.203933,-0.019521,20.000000,0.000000,16.711482,15.018530
168000,82.107392,10.115592,33.141334,0.000000,0.203718,-0.017613,20.000000,0.000000,16.674319,23.210281
169000,82.275947,10.105922,33.307892,0.000000,0.203521,-0.016515,20.000000,0.000000,16.637438,24.001050
170000,82.443953,10.097137,33.474086,0.000000,0.203341,-0.014489,20.000000,0.000000,16.601553,35.568041
171000,82.611411,10.089265,33.639922,0.000000,0.203181,-0.013295,20.000000,0.000000,16.565695,33.853890
172000,82.778321,10.082341,33.805406,0.000000,0.203039,-0.011142,20.000000,0.000000,16.531212,49.176910
173000,82.944682,10.076395,33.970544,0.000000,0.202918,-0.009847,20.000000,0.000000,16.496483,44.732883
174000,83.110496,10.071463,34.135343,0.000000,0.202817,-0.007558,20.000000,0.000000,16.463553,64.266704
175000,83.275762,10.067579,34.299810,0.000000,0.202738,-0.006152,20.000000,0.000000,16.430076,56.830727
176000,83.440481,10.064782,34.463954,0.000000,0.202680,-0.003717,20.000000,0.000000,16.398876,81.119748
177000,83.604653,10.063107,34.627782,0.000000,0.202646,-0.002192,20.000000,0.000000,16.366800,70.383566
178000,83.768278,10.062598,34.791302,0.000000,0.202636,0.000401,20.000000,0.000000,16.337543,100.080050
179000,83.931357,10.063292,34.954525,0.000000,0.202650,0.002055,20.000000,0.000000,16.307047,85.678502
180000,84.093892,10.065236,35.117458,0.000000,0.202690,0.004819,20.000000,0.000000,16.279985,121.563554
181000,84.255882,10.068472,35.280114,0.000000,0.202756,0.006612,20.000000,0.000000,16.251282,103.061822
182000,84.417329,10.073051,35.442503,0.000000,0.202849,0.009561,20.000000,0.000000,16.226721,146.068993
183000,84.578235,10.079016,35.604636,0.000000,0.202971,0.011505,20.000000,0.000000,16.200067,122.947490
184000,84.738601,10.086423,35.766526,0.000000,0.203122,0.014654,20.000000,0.000000,16.178371,174.188488
185000,84.898428,10.095321,35.928187,0.000000,0.203304,0.016760,20.000000,0.000000,16.154072,145.825017
186000,85.057721,10.105767,36.089634,0.000000,0.203517,0.020124,20.000000,0.000000,16.135675,206.616358
187000,85.216480,10.117815,36.250882,0.000000,0.203763,0.022406,20.000000,0.000000,16.114096,172.265283
188000,85.374711,10.131526,36.411948,0.000000,0.204043,0.026000,20.000000,0.000000,16.099517,244.153748
189000,85.532417,10.146958,36.572850,0.000000,0.204358,0.028467,20.000000,0.000000,16.081091,202.922097
190000,85.689604,10.164175,36.733608,0.000000,0.204710,0.032304,20.000000,0.000000,16.070940,287.705502
191000,85.846276,10.183238,36.894242,0.000000,0.205099,0.034968,20.000000,0.000000,16.056174,238.526287
