t,x_kite,z_kite,x_block,z_block,theta,vtheta,windx,windy,v_block,Tension
0,50.000000,0.001000,0.000000,0.000000,0.000020,1.000425,20.000000,0.000000,0.007067,35736.203275
1000,50.019242,0.550958,0.022278,0.000000,0.011019,1.186142,20.000000,0.000000,4.670624,53197.848651
2000,50.091717,1.171424,0.105441,0.000000,0.023431,1.263553,20.000000,0.000000,12.052873,75258.121985
3000,50.232639,1.781589,0.264389,0.000000,0.035639,1.151514,20.000000,0.000000,19.460465,65412.691499
4000,50.426458,2.313072,0.479989,0.000000,0.046278,0.985387,20.000000,0.000000,22.281806,44007.375061
5000,50.626458,2.773655,0.703449,0.000000,0.055502,0.864619,20.000000,0.000000,22.400621,33794.038861
6000,50.826458,3.180678,0.927728,0.000000,0.063657,0.770042,20.000000,0.000000,22.450146,26736.823849
7000,51.026459,3.545184,1.152301,0.000000,0.070963,0.693960,20.000000,0.000000,22.461170,21659.468702
8000,51.226460,3.875127,1.376852,0.000000,0.077580,0.631450,20.000000,0.000000,22.447354,17888.155393
9000,51.426460,4.176416,1.601190,0.000000,0.083626,0.579186,20.000000,0.000000,22.417414,-14977.066909
10000,51.626461,4.453558,1.825198,0.000000,0.089189,0.534753,20.000000,0.000000,22.382279,12765.371463
11000,51.826463,4.710071,2.048805,0.000000,0.094341,0.496584,20.000000,0.000000,22.339072,10981.058836
12000,52.026463,4.948749,2.271967,0.000000,0.099137,0.463402,20.000000,0.000000,22.292420,-9555.175600
13000,52.226464,5.171836,2.494662,0.000000,0.103622,0.434210,20.000000,0.000000,22.245066,-8379.326474
14000,52.426464,5.381155,2.716876,0.000000,0.107832,0.408314,20.000000,0.000000,22.196822,-7400.785415
15000,52.626465,5.578218,2.938604,0.000000,0.111797,0.385175,20.000000,0.000000,22.148012,-6577.736664
16000,52.826465,5.764290,3.159847,0.000000,0.115543,0.364336,20.000000,0.000000,22.100129,-5878.012273
17000,53.026466,5.940444,3.380609,0.000000,0.119090,0.345485,20.000000,0.000000,22.051922,-5278.896934
18000,53.226466,6.107593,3.600895,0.000000,0.122458,0.328294,20.000000,0.000000,22.005602,4745.876920
19000,53.426466,6.266525,3.820714,0.000000,0.125661,0.312587,20.000000,0.000000,21.958992,4297.392732
20000,53.626467,6.417923,4.040075,0.000000,0.128714,0.298150,20.000000,0.000000,21.913119,-3916.501542
21000,53.826467,6.562379,4.258986,0.000000,0.131627,0.284810,20.000000,0.000000,21.868673,-3569.234929
22000,54.026467,6.700418,4.477457,0.000000,0.134413,0.272438,20.000000,0.000000,21.825427,-3261.597191
23000,54.226467,6.832498,4.695498,0.000000,0.137079,0.260942,20.000000,0.000000,21.782576,-2988.179783
24000,54.426468,6.959028,4.913117,0.000000,0.139634,0.250195,20.000000,0.000000,21.741278,2739.475277
25000,54.626468,7.080371,5.130323,0.000000,0.142085,0.240149,20.000000,0.000000,21.700214,-2524.092186
26000,54.826468,7.196852,5.347126,0.000000,0.144439,0.230705,20.000000,0.000000,21.660392,2325.867245
27000,55.026468,7.308763,5.563532,0.000000,0.146701,0.221819,20.000000,0.000000,21.621162,-2147.473490
28000,55.226468,7.416366,5.779552,0.000000,0.148877,0.213424,20.000000,0.000000,21.582889,1988.122940
29000,55.426468,7.519899,5.995191,0.000000,0.150971,0.205490,20.000000,0.000000,21.545043,-1837.631696
30000,55.626468,7.619578,6.210458,0.000000,0.152988,0.197952,20.000000,0.000000,21.508307,1708.812659
31000,55.826468,7.715598,6.425359,0.000000,0.154931,0.190790,20.000000,0.000000,21.472170,1586.872038
32000,56.026468,7.808139,6.639901,0.000000,0.156805,0.183971,20.000000,0.000000,21.436551,1475.118677
33000,56.226468,7.897363,6.854091,0.000000,0.158611,0.177469,20.000000,0.000000,21.401383,-1362.227945
34000,56.426468,7.983421,7.067933,0.000000,0.160355,0.171242,20.000000,0.000000,21.367145,1277.761971
35000,56.626468,8.066450,7.281434,0.000000,0.162037,0.165287,20.000000,0.000000,21.333182,-1177.691984
36000,56.826468,8.146578,7.494599,0.000000,0.163661,0.159567,20.000000,0.000000,21.299927,1109.628691
37000,57.026468,8.223920,7.707434,0.000000,0.165229,0.154076,20.000000,0.000000,21.267043,-1019.723128
38000,57.226468,8.298586,7.919942,0.000000,0.166743,0.148790,20.000000,0.000000,21.234674,-949.171220
39000,57.426468,8.370675,8.132130,0.000000,0.168206,0.143696,20.000000,0.000000,21.202730,-883.569076
40000,57.626468,8.440279,8.344000,0.000000,0.169618,0.138777,20.000000,0.000000,21.171310,840.593394
41000,57.826468,8.507485,8.555557,0.000000,0.170982,0.134028,20.000000,0.000000,21.140151,-765.472959
42000,58.026468,8.572374,8.766805,0.000000,0.172299,0.129428,20.000000,0.000000,21.109505,732.240999
43000,58.226468,8.635019,8.977748,0.000000,0.173571,0.124974,20.000000,0.000000,21.079125,-662.507431
44000,58.426468,8.695490,9.188388,0.000000,0.174799,0.120655,20.000000,0.000000,21.049083,-615.971360
45000,58.626468,8.753852,9.398731,0.000000,0.175984,0.116458,20.000000,0.000000,21.019423,-572.360253
46000,58.826468,8.810166,9.608778,0.000000,0.177128,0.112378,20.000000,0.000000,20.990054,554.705918
47000,59.026468,8.864488,9.818533,0.000000,0.178232,0.108407,20.000000,0.000000,20.961004,517.055850
48000,59.226467,8.916872,10.027998,0.000000,0.179297,0.104539,20.000000,0.000000,20.932185,481.731328
49000,59.426467,8.967367,10.237176,0.000000,0.180323,0.100768,20.000000,0.000000,20.903615,448.557504
50000,59.626467,9.016019,10.446071,0.000000,0.181312,0.097086,20.000000,0.000000,20.875297,-391.464356
51000,59.826467,9.062873,10.654683,0.000000,0.182265,0.093489,20.000000,0.000000,20.847223,-361.551001
52000,60.026467,9.107970,10.863016,0.000000,0.183182,0.089968,20.000000,0.000000,20.819448,360.471932
53000,60.226467,9.151347,11.071072,0.000000,0.184065,0.086524,20.000000,0.000000,20.791795,334.536744
54000,60.426467,9.193042,11.278853,0.000000,0.184913,0.083149,20.000000,0.000000,20.764377,310.122675
55000,60.626467,9.233088,11.486360,0.000000,0.185728,0.079839,20.000000,0.000000,20.737144,287.148587
56000,60.826467,9.271517,11.693596,0.000000,0.186510,0.076591,20.000000,0.000000,20.710101,265.526243
57000,61.026466,9.308359,11.900562,0.000000,0.187260,0.073401,20.000000,0.000000,20.683235,245.179425
58000,61.226466,9.343642,12.107261,0.000000,0.187978,0.070265,20.000000,0.000000,20.656520,226.041502
59000,61.426466,9.377393,12.313693,0.000000,0.188665,0.067180,20.000000,0.000000,20.629964,208.044053
60000,61.626466,9.409637,12.519860,0.000000,0.189322,0.064143,20.000000,0.000000,20.603550,191.129310
61000,61.826466,9.440380,12.725761,0.000000,0.189948,0.061086,20.000000,0.000000,20.576646,149.688655
62000,62.026466,9.469645,12.931396,0.000000,0.190544,0.058136,20.000000,0.000000,20.550509,160.017710
63000,62.226466,9.497469,13.136771,0.000000,0.191111,0.055226,20.000000,0.000000,20.524506,146.056130
64000,62.426465,9.523871,13.341887,0.000000,0.191648,0.052353,20.000000,0.000000,20.498594,132.988031
65000,62.626465,9.548869,13.546743,0.000000,0.192158,0.049522,20.000000,0.000000,20.472600,120.802857
66000,62.826454,9.572493,13.751334,0.000000,0.192639,0.046767,20.000000,0.000000,20.445540,109.620996
67000,63.026416,9.594782,13.955650,0.000000,0.193093,0.044088,20.000000,0.000000,20.417350,99.389995
68000,63.226336,9.615772,14.159678,0.000000,0.193521,0.041481,20.000000,0.000000,20.388124,90.034140
69000,63.426197,9.635498,14.363409,0.000000,0.193923,0.038941,20.000000,0.000000,20.357953,81.484762
70000,63.625986,9.653992,14.566834,0.000000,0.194300,0.036463,20.000000,0.000000,20.326917,73.679704
71000,63.825691,9.671284,14.769944,0.000000,0.194653,0.034042,20.000000,0.000000,20.295093,66.562829
72000,64.025299,9.687399,14.972733,0.000000,0.194981,0.031675,20.000000,0.000000,20.262550,60.083564
73000,64.224801,9.702365,15.175193,0.000000,0.195286,0.029355,20.000000,0.000000,20.229354,54.196485
74000,64.424184,9.716202,15.377315,0.000000,0.195568,0.027078,20.000000,0.000000,20.194993,43.899953
75000,64.623439,9.728932,15.579093,0.000000,0.195828,0.024842,20.000000,0.000000,20.160667,44.042330
76000,64.822561,9.740574,15.780526,0.000000,0.196065,0.022642,20.000000,0.000000,20.125856,39.705894
77000,65.021543,9.751144,15.981608,0.000000,0.196281,0.020473,20.000000,0.000000,20.090610,35.824314
78000,65.220378,9.760657,16.182336,0.000000,0.196475,0.018332,20.000000,0.000000,20.054977,32.373021
79000,65.419062,9.769126,16.382706,0.000000,0.196647,0.016214,20.000000,0.000000,20.019000,29.330886
80000,65.617589,9.776561,16.582715,0.000000,0.196799,0.014116,20.000000,0.000000,19.982722,26.680057
81000,65.815955,9.782971,16.782360,0.000000,0.196930,0.012034,20.000000,0.000000,19.946183,24.405800
82000,66.014157,9.788363,16.981638,0.000000,0.197040,0.009964,20.000000,0.000000,19.909423,22.496266
83000,66.212192,9.792743,17.180547,0.000000,0.197129,0.007903,20.000000,0.000000,19.872480,20.941884
84000,66.410058,9.796113,17.379086,0.000000,0.197198,0.005848,20.000000,0.000000,19.835391,19.733248
85000,66.607753,9.798477,17.577254,0.000000,0.197246,0.003797,20.000000,0.000000,19.798191,18.853477
86000,66.805277,9.799836,17.775050,0.000000,0.197274,0.001749,20.000000,0.000000,19.760914,18.254882
87000,67.002628,9.800192,17.972472,0.000000,0.197281,-0.000296,20.000000,0.000000,19.723583,17.820198
88000,67.199806,9.799547,18.169521,0.000000,0.197268,-0.002333,20.000000,0.000000,19.686208,17.373423
89000,67.396809,9.797905,18.366195,0.000000,0.197234,-0.004357,20.000000,0.000000,19.648777,16.767795
90000,67.593634,9.795276,18.562496,0.000000,0.197181,-0.006364,20.000000,0.000000,19.611271,15.927573
91000,67.790280,9.791668,18.758420,0.000000,0.197107,-0.008349,20.000000,0.000000,19.573661,14.825301
92000,67.986741,9.787092,18.953968,0.000000,0.197014,-0.010308,20.000000,0.000000,19.535921,13.456946
93000,68.183014,9.781563,19.149138,0.000000,0.196901,-0.012237,20.000000,0.000000,19.498022,11.829651
94000,68.379093,9.775096,19.343927,0.000000,0.196769,-0.014133,20.000000,0.000000,19.459937,9.956533
95000,68.574973,9.767708,19.538335,0.000000,0.196619,-0.015992,20.000000,0.000000,19.421642,7.854366
96000,68.770648,9.759418,19.732359,0.000000,0.196450,-0.017811,20.000000,0.000000,19.383113,5.542426
97000,68.966109,9.750247,19.925996,0.000000,0.196262,-0.019586,20.000000,0.000000,19.344329,3.041816
98000,69.161351,9.740215,20.119244,0.000000,0.196058,-0.021315,20.000000,0.000000,19.305271,0.375003
99000,69.356364,9.729347,20.312100,0.000000,0.195836,-0.022995,20.000000,0.000000,19.265923,-2.434538
100000,69.551141,9.717667,20.504561,0.000000,0.195598,-0.024624,20.000000,0.000000,19.226271,-5.362632
101000,69.745672,9.705201,20.696624,0.000000,0.195344,-0.026198,20.000000,0.000000,19.186304,-8.384682
102000,69.939949,9.691976,20.888286,0.000000,0.195074,-0.027715,20.000000,0.000000,19.146013,-11.475920
103000,70.133961,9.678020,21.079543,0.000000,0.194790,-0.029174,20.000000,0.000000,19.105393,-14.611655
104000,70.327700,9.663362,21.270392,0.000000,0.194491,-0.030572,20.000000,0.000000,19.064439,-17.767492
105000,70.521155,9.648034,21.460830,0.000000,0.194179,-0.031907,20.000000,0.000000,19.023151,-20.919548
106000,70.714316,9.632065,21.650854,0.000000,0.193853,-0.033178,20.000000,0.000000,18.981531,-24.044644
107000,70.907173,9.615487,21.840460,0.000000,0.193515,-0.034384,20.000000,0.000000,18.939583,-27.120484
108000,71.099716,9.598333,22.029644,0.000000,0.193166,-0.035523,20.000000,0.000000,18.897313,-30.125817
109000,71.291935,9.580636,22.218404,0.000000,0.192805,-0.036593,20.000000,0.000000,18.854730,-33.040577
110000,71.483819,9.562428,22.406737,0.000000,0.192434,-0.037595,20.000000,0.000000,18.811845,-35.846004
111000,71.675358,9.543745,22.594640,0.000000,0.192053,-0.038527,20.000000,0.000000,18.768669,-38.524743
112000,71.866543,9.524621,22.782109,0.000000,0.191664,-0.039389,20.000000,0.000000,18.725218,-41.060926
113000,72.057362,9.505089,22.969143,0.000000,0.191266,-0.040181,20.000000,0.000000,18.681507,-43.440230
114000,72.247808,9.485184,23.155738,0.000000,0.190860,-0.040901,20.000000,0.000000,18.637553,-45.649910
115000,72.437869,9.464942,23.341893,0.000000,0.190448,-0.041551,20.000000,0.000000,18.593376,-47.678822
116000,72.627537,9.444396,23.527605,0.000000,0.190030,-0.042130,20.000000,0.000000,18.548995,-49.517412
117000,72.816803,9.423582,23.712872,0.000000,0.189606,-0.042638,20.000000,0.000000,18.504429,-51.157705
118000,73.005650,9.402564,23.897689,0.000000,0.189178,-0.042951,20.000000,0.000000,18.459155,-57.604026
119000,73.194069,9.381377,24.082057,0.000000,0.188746,-0.043322,20.000000,0.000000,18.414330,-53.417127
120000,73.382062,9.360022,24.265975,0.000000,0.188311,-0.043624,20.000000,0.000000,18.369387,-54.438612
121000,73.569620,9.338535,24.449444,0.000000,0.187874,-0.043858,20.000000,0.000000,18.324347,-55.245250
122000,73.756737,9.316948,24.632461,0.000000,0.187435,-0.044023,20.000000,0.000000,18.279234,-55.835964
123000,73.943406,9.295294,24.815028,0.000000,0.186994,-0.044121,20.000000,0.000000,18.234071,-56.210814
124000,74.129619,9.273606,24.997142,0.000000,0.186552,-0.044153,20.000000,0.000000,18.188879,-56.370892
125000,74.315370,9.251917,25.178805,0.000000,0.186111,-0.044120,20.000000,0.000000,18.143683,-56.318207
126000,74.500654,9.230259,25.360016,0.000000,0.185670,-0.044022,20.000000,0.000000,18.098504,-56.055565
127000,74.685464,9.208662,25.540775,0.000000,0.185231,-0.043861,20.000000,0.000000,18.053364,-55.586455
128000,74.869797,9.187159,25.721083,0.000000,0.184793,-0.043637,20.000000,0.000000,18.008285,-54.914926
129000,75.053646,9.165778,25.900940,0.000000,0.184358,-0.043352,20.000000,0.000000,17.963288,-54.045468
130000,75.237008,9.144551,26.080348,0.000000,0.183926,-0.043007,20.000000,0.000000,17.918393,-52.982891
131000,75.419878,9.123507,26.259308,0.000000,0.183498,-0.042602,20.000000,0.000000,17.873622,-51.732213
132000,75.602252,9.102674,26.437821,0.000000,0.183074,-0.042139,20.000000,0.000000,17.828992,-50.298548
133000,75.784128,9.082082,26.615888,0.000000,0.182656,-0.041618,20.000000,0.000000,17.784524,-48.686992
134000,75.965501,9.061758,26.793511,0.000000,0.182242,-0.041040,20.000000,0.000000,17.740235,-46.902526
135000,76.146369,9.041731,26.970693,0.000000,0.181835,-0.040407,20.000000,0.000000,17.696145,-44.949910
136000,76.326729,9.022027,27.147434,0.000000,0.181434,-0.039719,20.000000,0.000000,17.652269,-42.833590
137000,76.506580,9.002673,27.323739,0.000000,0.181041,-0.038976,20.000000,0.000000,17.608626,-40.557608
138000,76.685918,8.983697,27.499607,0.000000,0.180655,-0.038180,20.000000,0.000000,17.565232,-38.125512
139000,76.864743,8.965124,27.675044,0.000000,0.180277,-0.037330,20.000000,0.000000,17.522103,-35.540277
140000,77.043053,8.946981,27.850050,0.000000,0.179909,-0.036428,20.000000,0.000000,17.479255,-32.804219
141000,77.220846,8.929293,28.024629,0.000000,0.179549,-0.035473,20.000000,0.000000,17.436704,-29.918919
142000,77.398121,8.912087,28.198785,0.000000,0.179199,-0.034466,20.000000,0.000000,17.394465,-26.885145
143000,77.574878,8.895388,28.372519,0.000000,0.178860,-0.033407,20.000000,0.000000,17.352555,-23.702781
144000,77.751115,8.879221,28.545836,0.000000,0.178531,-0.032296,20.000000,0.000000,17.310989,-20.370739
145000,77.926832,8.863614,28.718740,0.000000,0.178214,-0.031133,20.000000,0.000000,17.269782,-16.886889
146000,78.102029,8.848591,28.891233,0.000000,0.177909,-0.029917,20.000000,0.000000,17.228951,-13.247976
147000,78.276705,8.834179,29.063320,0.000000,0.177616,-0.028648,20.000000,0.000000,17.188513,-9.449528
148000,78.450860,8.820403,29.235004,0.000000,0.177336,-0.027325,20.000000,0.000000,17.148483,-5.485769
149000,78.624495,8.807291,29.406290,0.000000,0.177070,-0.025949,20.000000,0.000000,17.108882,-1.349518
150000,78.797608,8.794870,29.577183,0.000000,0.176817,-0.024517,20.000000,0.000000,17.069726,2.967920
151000,78.970201,8.783167,29.747686,0.000000,0.176580,-0.023029,20.000000,0.000000,17.031035,7.476870
152000,79.142274,8.772209,29.917805,0.000000,0.176357,-0.021484,20.000000,0.000000,16.992830,12.189423
153000,79.313827,8.762027,30.087544,0.000000,0.176150,-0.019880,20.000000,0.000000,16.955134,17.119575
154000,79.484887,8.752514,30.256913,0.000000,0.175957,-0.018760,20.000000,0.000000,16.918677,28.029252
155000,79.655455,8.743703,30.425915,0.000000,0.175778,-0.017028,20.000000,0.000000,16.881913,26.205099
156000,79.825503,8.735760,30.594552,0.000000,0.175617,-0.015232,20.000000,0.000000,16.845734,31.897590
157000,79.995031,8.728717,30.762831,0.000000,0.175473,-0.013371,20.000000,0.000000,16.810171,37.880922
158000,80.164041,8.722607,30.930758,0.000000,0.175349,-0.011443,20.000000,0.000000,16.775255,44.181219
159000,80.332532,8.717463,31.098338,0.000000,0.175245,-0.009444,20.000000,0.000000,16.741021,50.827732
160000,80.500507,8.713320,31.265580,0.000000,0.175161,-0.007372,20.000000,0.000000,16.707508,57.853127
161000,80.667955,8.710296,31.432493,0.000000,0.175099,-0.004902,20.000000,0.000000,16.675169,70.024166
162000,80.834877,8.708427,31.599084,0.000000,0.175061,-0.002678,20.000000,0.000000,16.643329,74.172371
163000,81.001288,8.707674,31.765362,0.000000,0.175046,-0.000370,20.000000,0.000000,16.612349,82.590762
164000,81.167189,8.708078,31.931334,0.000000,0.175054,0.002023,20.000000,0.000000,16.582286,91.563519
165000,81.332581,8.709682,32.097010,0.000000,0.175087,0.004507,20.000000,0.000000,16.553200,101.145565
166000,81.497468,8.712532,32.262401,0.000000,0.175145,0.007084,20.000000,0.000000,16.525160,111.397358
167000,81.661850,8.716675,32.427517,0.000000,0.175229,0.009759,20.000000,0.000000,16.498239,122.385283
168000,81.825732,8.722160,32.592370,0.000000,0.175340,0.012535,20.000000,0.000000,16.472519,134.182003
169000,81.989115,8.729037,32.756972,0.000000,0.175480,0.015418,20.000000,0.000000,16.448089,146.866802
170000,82.152002,8.737360,32.921336,0.000000,0.175649,0.018411,20.000000,0.000000,16.425048,160.525852
171000,82.314399,8.747185,33.085477,0.000000,0.175849,0.021519,20.000000,0.000000,16.403503,175.252415
172000,82.476309,8.758569,33.249411,0.000000,0.176080,0.024746,20.000000,0.000000,16.383573,191.146917
173000,82.637737,8.771571,33.413154,0.000000,0.176344,0.028097,20.000000,0.000000,16.365387,208.316877
174000,82.798689,8.786252,33.576725,0.000000,0.176642,0.031574,20.000000,0.000000,16.349085,226.876629
175000,82.959172,8.802677,33.740143,0.000000,0.176976,0.035183,20.000000,0.000000,16.334821,246.946791
176000,83.119194,8.820909,33.903429,0.000000,0.177346,0.038926,20.000000,0.000000,16.322761,268.653410
177000,83.278763,8.841016,34.066606,0.000000,0.177755,0.042806,20.000000,0.000000,16.313085,292.126714
178000,83.437890,8.863065,34.229699,0.000000,0.178203,0.046825,20.000000,0.000000,16.305988,317.499406
179000,83.596586,8.887125,34.392735,0.000000,0.178692,0.050985,20.000000,0.000000,16.301676,344.904394
180000,83.754866,8.913263,34.555742,0.000000,0.179223,0.055285,20.000000,0.000000,16.300374,374.471909
181000,83.912744,8.941549,34.718753,0.000000,0.179798,0.059724,20.000000,0.000000,16.302316,406.325899
182000,84.070237,8.972049,34.881800,0.000000,0.180418,0.064301,20.000000,0.000000,16.307750,440.579672
183000,84.227367,9.004830,35.044921,0.000000,0.181085,0.069010,20.000000,0.000000,16.316938,477.330708
184000,84.384155,9.039953,35.208153,0.000000,0.181799,0.073845,20.000000,0.000000,16.330148,516.654666
185000,84.540628,9.077479,35.371538,0.000000,0.182562,0.078799,20.000000,0.000000,16.347656,558.598586
186000,84.696812,9.117462,35.535121,0.000000,0.183375,0.083860,20.000000,0.000000,16.369742,603.173406
187000,84.852742,9.159951,35.698949,0.000000,0.184240,0.089015,20.000000,0.000000,16.396684,650.345947
188000,85.008453,9.205121,35.863100,0.000000,0.185159,0.094798,20.000000,0.000000,16.434380,757.932559
189000,85.163989,9.253005,36.027629,0.000000,0.186133,0.100088,20.000000,0.000000,16.472384,757.294085
190000,85.319399,9.303624,36.192598,0.000000,0.187163,0.105965,20.000000,0.000000,16.522570,878.519603
191000,85.474735,9.356985,36.358070,0.000000,0.188250,0.111291,20.000000,0.000000,16.572666,873.352807
192000,85.630044,9.412947,36.524072,0.000000,0.189389,0.116594,20.000000,0.000000,16.628806,930.999008
193000,85.785381,9.471488,36.690667,0.000000,0.190581,0.121843,20.000000,0.000000,16.691118,989.574069
